Tiempo [s],h1_Real,h2_Real,h3_Real,h4_Real,h1_Ref,h2_Ref,h3_Ref,h4_Ref,v1_Control,v2_Control
0,12.310038066959024,12.638324882237189,1.7467310045758246,1.3654533334267285,14.0,14.0,1.7081055346161487,1.689307479224378,1.865128746676078,2.0120984673024482
1,12.374507738279338,12.653954494859635,1.7532764158703427,1.3892829996058595,14.047121951935463,14.04712195193546,1.7138547679663536,1.6949934410701093,3.7294622808242854,3.2415105709531327
2,12.479000402694625,12.67839280661811,1.7655132906200246,1.4274405117478983,14.094232277234385,14.094232277234385,1.7196025827792583,1.7006779999898347,4.2216251461863425,3.368772583680314
3,12.558489672224143,12.726835312851831,1.7946404924931012,1.4553504984389694,14.141319352128928,14.141319352128928,1.7253475608675621,1.7063597534037027,3.9283258162917956,3.7399930356686375
4,12.650188269107662,12.779982238133378,1.825776107243287,1.486901825698686,14.18837155858794,14.18837155858794,1.7310882847438867,1.7120372994240758,4.076104064591505,3.808353923558926
5,12.757466483523553,12.831587580462871,1.8541042983722824,1.5233220044419582,14.235377287183535,14.235377287183535,1.7368233379705156,1.7177092372014275,4.267276257223837,3.775509421402343
6,12.867570124858698,12.885994083831315,1.8829445694219709,1.5598349407134893,14.282324939955544,14.282324939955542,1.7425513055088795,1.723374167269984,4.30758229958901,3.810842903697134
7,12.993122655494346,12.926645989278308,1.8998304625707687,1.6012520542936666,14.329202933273136,14.329202933273136,1.7482707740687002,1.7290306918930143,4.5040887681396935,3.580587010987972
8,13.105478181517084,12.986805665004201,1.9301242772144898,1.6368535629286272,14.375999700692912,14.375999700692914,1.753980332456691,1.7346774154077114,4.356266369656072,3.88085056425749
9,13.208996983983043,13.020013429276846,1.9386993247352058,1.6684396727145856,14.422703695812748,14.422703695812748,1.759678571924752,1.7403129445695393,4.260828007967039,3.4434094693525616
10,13.360282619244082,13.073198955446436,1.9612910296504038,1.7172137351708836,14.469303395120694,14.469303395120692,1.765364086517563,1.7459358888960068,4.85067578727876,3.749451852194157
11,13.491567194570399,13.145354684981982,1.9966726384330669,1.7575238436375493,14.515787300838229,14.515787300838229,1.7710354734194709,1.7515448610097335,4.622524365399215,4.041000583371354
12,13.596029164053038,13.19778514773111,2.0156708117071185,1.7870079904997374,14.562143943757174,14.562143943757173,1.7766913333006176,1.757138476980785,4.309018076240791,3.7212253422818597
13,13.683368459379883,13.245882209109112,2.030528639948824,1.8095995798465927,14.608361886069538,14.608361886069538,1.7823302706622128,1.7627153566681162,4.112848066294792,3.648695500562413
14,13.759668663034548,13.299362101761698,2.0487998819111675,1.827676113620035,14.654429724189628,14.654429724189628,1.7879508941808369,1.7682741240601136,3.987320113541448,3.7336667108857577
15,13.840741932689054,13.360191648994672,2.0719124948724104,1.84713695354286,14.700336091567717,14.700336091567715,1.7935518170517384,1.7738134076141012,4.049206236708246,3.8517993705771763
16,13.935718371097776,13.40981903771328,2.0857406191706596,1.8714052619197852,14.746069661494564,14.746069661494564,1.7991316573310105,1.7793318405947485,4.223530012491633,3.672839239899759
17,14.021586836915978,13.472954930796908,2.109108794459486,1.891851888422555,14.79161914989612,14.79161914989612,1.8046890382765546,1.78482806141129,4.121764171341083,3.8873084889506164
18,14.075958165536187,13.52923961742068,2.1266417266683098,1.9001729181040072,14.836973318117687,14.836973318117687,1.810222588687782,1.7903007139534828,3.746558721659408,3.7818945502133205
19,14.127093474014323,13.576227259443007,2.1368134932604734,1.9071579116886772,14.882120975696912,14.882120975696912,1.8157309432439264,1.7957484479262,3.7107762090743357,3.639213134752469
20,14.186912812758592,13.621255250560791,2.1453219386770086,1.9173306065845888,14.927050983124841,14.927050983124841,1.8212127428409264,1.8011699191826007,3.8207393440071984,3.6119517042654463
21,14.221471273485136,13.685193222266436,2.1679672330453887,1.9179168609510802,14.971752254594449,14.971752254594447,1.8266666349267553,1.8065637900557756,3.518558751417208,3.9198505297996915
22,14.305469724989717,13.762448463701613,2.200076845003287,1.936705675302674,15.016213760735875,15.016213760735873,1.832091273835151,1.8119287296887965,4.110488523031315,4.139439070890213
23,14.400690793783344,13.815802238224022,2.2132026608251083,1.9592950008736238,15.060424531337771,15.06042453133777,1.8374853211176325,1.8172634143630861,4.25101444810512,3.760634388584411
24,14.492966164964466,13.867195002804618,2.2243300191096265,1.9805111205103965,15.104373658054033,15.104373658054033,1.8428474458737476,1.8225665278250258,4.226800109604672,3.7284372615795567
25,14.558374348411807,13.914027722703546,2.231688202348011,1.9915066306870348,15.148050297095269,15.148050297095269,1.848176325079444,1.8278367616107216,3.9138658149227505,3.6569434025829985
26,14.615495285927537,13.957125543349903,2.236140521713977,1.9993857776346866,15.191443671904342,15.191443671904342,1.85347064391352,1.8330728153688465,3.8224885792472145,3.60085635954508
27,14.698875358531582,14.005864074275618,2.2447425025755128,2.017050329259171,15.234543075815326,15.234543075815326,1.858729096082021,1.838273397181485,4.147359751977294,3.692696351881135
28,14.75785347134821,14.057306974224316,2.255174877424367,2.025459407266438,15.277337874695219,15.277337874695219,1.8639503841405582,1.8434372238828935,3.8624773527117355,3.738400911721424
29,14.830278442577985,14.108965434153658,2.2655652601569156,2.038823309277613,15.319817509567745,15.319817509567745,1.8691332198144317,1.8485630213760986,4.030862731448663,3.745658911341833
30,14.880773877807133,14.15911892501597,2.274659221155985,2.0439089253108964,15.36197149921864,15.36197149921864,1.8742763243164915,1.8536495249472706,3.773844814559035,3.7261622142311768
31,14.930773574540652,14.198804499160271,2.275840276392191,2.048873004843442,15.40378944278172,15.403789442781719,1.879378428662661,1.858695479577763,3.7743929385467334,3.5647983935100647
32,14.988905203400579,14.266288707912608,2.2980555790526997,2.0568386177319566,15.445261022305147,15.445261022305145,1.8844382739850358,1.8636996402537753,3.8762500888266826,4.013456070520958
33,15.03082269587743,14.29694178074508,2.292195969961873,2.0587483209311612,15.486376005297222,15.486376005297222,1.8894546118424929,1.8686607722735393,3.6866074760782106,3.433092106158802
34,15.080734711841417,14.350782146567449,2.3041510727986556,2.063766595311415,15.527124247251114,15.527124247251113,1.89442620452873,1.8735776515519655,3.789237548908946,3.807741604183062
35,15.135996668881534,14.401931753716005,2.3139446774492494,2.0707605039515613,15.567495694147846,15.567495694147846,1.8993518253776434,1.8784490649226615,3.857807350212373,3.7709786343483125
36,15.189805733247953,14.440380611452392,2.3140929495510854,2.0772516653458704,15.60748038493699,15.60748038493699,1.9042302590659892,1.8832738104372737,3.8476234172884567,3.5732488316571183
37,15.255973718392172,14.489799224168841,2.322601846387062,2.0883996184778963,15.647068453994395,15.647068453994395,1.9090603019132557,1.8880506976620393,4.004528972435419,3.7513053420189513
38,15.322838769477057,14.525981524645019,2.321002961613314,2.0998124882665072,15.686250133556392,15.686250133556392,1.913840762178641,1.8927785479715156,4.022878869019893,3.542736283840141
39,15.35326901083407,14.566236325920991,2.3227103284385824,2.09769709557326,15.725015756129835,15.725015756129835,1.9185704603551093,1.8974561948393813,3.5935725732375703,3.611871727727566
40,15.40733793084719,14.59741081472881,2.317790032391387,2.104629858151077,15.76335575687742,15.76335575687742,1.923248229460403,1.9020824841262638,3.88552129684702,3.472130042769035
41,15.466735841890177,14.632894828387949,2.3163661873896775,2.1136914963682925,15.801260675977652,15.801260675977652,1.9278729153249954,1.9066562743645075,3.9606824109056142,3.5427540990844544
42,15.501891572952243,14.672917853694106,2.3185880314036,2.113785896821091,15.83872116095893,15.83872116095893,1.932443376876847,1.9111764370398112,3.677407827233824,3.619248873787792
43,15.541860027281812,14.720608493387214,2.3267815979917503,2.115785138783796,15.875727969007116,15.875727969007114,1.9369584864229603,1.91564185686967,3.7393372288629267,3.7480568793559033
44,15.572489630506176,14.762625273872322,2.3307737707434395,2.114379102047203,15.912271969246069,15.912271969246069,1.9414171299276157,1.920051432078558,3.630510285343617,3.664945254933116
45,15.60361007681519,14.78901037690658,2.3232153670426783,2.113379801889481,15.948344144990552,15.94834414499055,1.9458182072872432,1.9244040746697768,3.642494554301992,3.422190966616915
46,15.635786828496327,14.828011086821245,2.325632177086095,2.112998947348518,15.983935595970955,15.983935595970955,1.9501606326018606,1.9286987106938946,3.6617060251033084,3.628674001726304
47,15.691987900475294,14.874739019635262,2.3339858159647284,2.1216749289188663,16.019037540529318,16.01903754052932,1.9544433344429986,1.9329342805137337,3.9554356448554837,3.7568832338490035
48,15.735419462085323,14.893703106424132,2.3213916946921644,2.125686055882555,16.053641317786067,16.053641317786067,1.958665256118062,1.9371097390658225,3.8115070041535146,3.317488416190878
49,15.794469277395848,14.917156859110982,2.3126307684092353,2.1357823026664415,16.087738389776945,16.087738389776945,1.9628253559310485,1.941224056118239,4.012548263086471,3.389372487341701
50,15.822121532067936,14.955505384765173,2.3154790444597397,2.1342591769579076,16.121320343559642,16.121320343559642,1.9669226074395816,1.9452762165248163,3.644043330570638,3.6297010185824834
51,15.855523744051562,15.009162507714052,2.330034864053745,2.1349440962623736,16.154378893289568,16.154378893289568,1.9709559997081574,1.9492652204756065,3.7144133429441557,3.88106906662397
52,15.892572890174371,15.050494997106593,2.3351789880947718,2.137010281706341,16.186905882264234,16.186905882264234,1.9749245375575877,1.9531900837435756,3.7598502937713896,3.6919618636195675
53,15.926144515892693,15.078564837160842,2.3304500315650505,2.1379165880517976,16.21889328493583,16.21889328493583,1.9788272418105415,1.9570498379274386,3.7239796115026134,3.485794963470267
54,15.946870607770634,15.128420671714725,2.342514771920609,2.1341365726441746,16.250333208891377,16.250333208891377,1.9826631495331402,1.9608435306906071,3.5726158514379636,3.8395636270113003
55,15.97412893621876,15.1846207744165,2.3593450161830396,2.132802593694615,16.281217896800094,16.281217896800094,1.9864313142725518,1.964570225996157,3.648760734783146,3.950225606929606
56,16.00861828517526,15.222436691146205,2.362171762599545,2.134207756399483,16.311539728327368,16.311539728327368,1.9901308062905114,1.9682290043377866,3.73653713161146,3.6650986074098695
57,16.03511866054888,15.265476840406391,2.369112602534308,2.132711792989339,16.341291222014988,16.341291222014988,1.9937607127927206,1.9718189629666858,3.643563238358388,3.7548020437999123
58,16.062508918810742,15.304805944611518,2.373365156175081,2.13164934255996,16.370465037127072,16.370465037127072,1.997320138154065,1.9753392161142818,3.656343532629492,3.7028903374545763
59,16.102159177202008,15.32068945356495,2.3601048977851002,2.1353868164516516,16.39905397546127,16.39905397546127,2.0008082041395965,1.978788895210786,3.8112614022012714,3.33347549742706
60,16.115792333905205,15.351193752209674,2.3584547947244405,2.129636784812855,16.427050983124843,16.427050983124843,2.0042240501212287,1.9821671490994979,3.506468017730752,3.57041271394785
61,16.13553676090884,15.390144445635945,2.363535771651785,2.1263639417544087,16.45444915227507,16.45444915227507,2.0075668332900736,1.9854731442468216,3.5819164410027846,3.712387975472381
62,16.180628516169108,15.430658951851038,2.3698723832111512,2.132646882001994,16.481241722823686,16.481241722823686,2.010835728864409,1.988706064947925,3.88932951730763,3.7429851074493143
63,16.231521069313782,15.446362408674219,2.357480219482276,2.141198485666261,16.50742208410481,16.50742208410481,2.0140299302931624,1.991865113527995,3.9684208567556003,3.3492830301350254
64,16.242511888289282,15.482842079850636,2.361249879398485,2.134976098654558,16.532983776506043,16.532983776506043,2.017148649454927,1.9949495105390695,3.496158086324137,3.683739123334151
65,16.25863622142679,15.520161788974274,2.3658940766703482,2.130831746579838,16.557920493062277,16.557920493062277,2.020191116852416,1.9979584949523361,3.558243761130266,3.705227535057647
66,16.290471641508972,15.54958872453329,2.364739171569122,2.132711034179678,16.582226081011832,16.582226081011832,2.0231565818023265,2.000891324345918,3.75022497216249,3.5853703482343486
67,16.315594399260494,15.574815572016954,2.3606738083967578,2.132238696756265,16.605894543314573,16.605894543314573,2.0260443126205523,2.0037472750880436,3.6755018852928516,3.522555836545353
68,16.343719577254785,15.610466525825332,2.364777556345841,2.133026026603414,16.62892004013159,16.62892004013159,2.0288535968027257,2.006525642515603,3.7159903233932727,3.6932873181346224
69,16.36947569993579,15.639666305310696,2.364141848081247,2.1330311524117382,16.65129689026608,16.65129689026608,2.0315837412000106,2.009225741108009,3.691276063444415,3.5955665520289375
70,16.38392240301157,15.669315179281904,2.364125891407805,2.1289594352348153,16.673019572565103,16.673019572565103,2.0342340721901304,2.011846904656334,3.5589187268907363,3.608269361402228
71,16.41432425045766,15.718758043501804,2.3792358113120704,2.130911788678042,16.694082727281845,16.694082727281845,2.03680393584357,2.014388486427696,3.7509763855682383,3.930121198906002
72,16.439872780725803,15.755966650455814,2.3849533628223814,2.1310200723384076,16.71448115739806,16.71448115739806,2.039292698084925,2.0168498593248203,3.6927955182229684,3.741768651772911
73,16.46159667176656,15.784693762836689,2.38437716211829,2.129797294462139,16.734209829906334,16.734209829906334,2.0416997448493555,2.0192304160407772,3.6496738938377162,3.612197114646185
74,16.492336774512797,15.796011185756816,2.370932355897399,2.132172440819543,16.753263877051943,16.753263877051943,2.0440244822340867,2.0215295692088184,3.765428501000521,3.3379387118190156
75,16.523674520512643,15.81275899657901,2.362083334282841,2.1350143127274532,16.771638597533858,16.771638597533858,2.046266336644957,2.0237467515473018,3.7826368977780915,3.4254881892838567
76,16.53019938122529,15.826528036878608,2.351470889355972,2.128828487307005,16.789329457664753,16.789329457664756,2.0484247549379377,2.0258814159996583,3.4919968326003583,3.381205716033071
77,16.550064629345982,15.84533120205453,2.345198308384883,2.127924867079883,16.8063320924896,16.8063320924896,2.0504992045556065,2.027933035869385,3.658138139313833,3.465440849904573
78,16.55920084207497,15.874635485743863,2.3472432643732146,2.123178100629288,16.822642306862676,16.822642306862676,2.052489173658565,2.0299011049499684,3.532578739724241,3.6376407847091174
79,16.56289071623405,15.893822527796596,2.3419402297466294,2.1165984058883196,16.838256076482637,16.838256076482637,2.054394171251714,2.031785137649818,3.468950657398315,3.4828350788464877
80,16.566838502917147,15.923386144284894,2.3449017345846364,2.110325054493631,16.85316954888546,16.85316954888546,2.0562137273054004,2.0335846691120527,3.473182204610576,3.6546490880959817
81,16.59649598887192,15.93424275789306,2.333938420195514,2.1138721787165218,16.86737904439499,16.86737904439499,2.057947392871396,2.035299255329215,3.7865864889246375,3.360581022716635
82,16.59542619461745,15.941700753702719,2.320938826948436,2.1061924197341573,16.88088105703083,16.88088105703083,2.059594740193661,2.0369284732528077,3.4251469996132187,3.30882244209381
83,16.604286930150987,15.944960400047636,2.3054231330420927,2.1026068936447606,16.893672255373396,16.893672255373396,2.061155362813898,2.03847192089769,3.551398756987987,3.245256840772865
84,16.59643889419944,15.96490714886262,2.303172153563545,2.093059515570971,16.905749483385893,16.905749483385893,2.0626288756718245,2.0399292174412476,3.3546915535958615,3.515602489349916
85,16.593091392144867,15.981057703969206,2.298471553070048,2.0854530357262187,16.91710976119303,16.91710976119303,2.0640149152001914,2.041300003317366,3.409375879930083,3.4617224544499066
86,16.60877098058877,16.01893413242894,2.3104728573865874,2.0850706805880628,16.92775028581624,16.92775028581624,2.0653131394144877,2.042583940305142,3.6373003707307037,3.8135793385489762
87,16.63490149638101,16.041982713969166,2.3111397057347753,2.0885853209392398,16.937668431865298,16.937668431865298,2.0665232279973096,2.0437807116123357,3.763506952089786,3.581606918371805
88,16.638697696787222,16.055630808492722,2.3048988702367548,2.083857849012509,16.946861752186066,16.946861752186066,2.0676448823774107,2.0448900219535338,3.4989483474069742,3.4350984740881736
89,16.65319501137445,16.074232268835512,2.302761970711589,2.0833200853858,16.95532797846432,16.95532797846432,2.0686778258033534,2.045911597623011,3.630857799443211,3.5176253221595806
90,16.652276746285082,16.092668827573565,2.3007845432977456,2.0771569370184513,16.963065021785415,16.96306502178541,2.0696218034118035,2.046845186562255,3.447719449546326,3.5193671630135177
91,16.662774050195182,16.11435865077037,2.301540537291331,2.0754155941316057,16.970070973149674,16.970070973149674,2.070476582290415,2.047690558422162,3.585903637456697,3.5760175760038577
92,16.665934527238726,16.132051821899868,2.2994871040572367,2.071051085984328,16.976344103943433,16.976344103943433,2.071241951535286,2.0484475046198796,3.4991946090463903,3.516804529785082
93,16.66615685193825,16.153722920060147,2.3007276502842804,2.0657317289987422,16.981882866365538,16.981882866365538,2.0719177223030076,2.0491158383902595,3.464354995960635,3.585327363252791
94,16.67844702032074,16.161149398091997,2.291436059673475,2.0651079455306363,16.98668589380924,16.98668589380924,2.0725037278572582,2.049695394831943,3.612161544991394,3.3621109812828025
95,16.707642415747873,16.160703596326833,2.276565852070155,2.0710260993314167,16.990752001199382,16.990752001199382,2.0729998236099343,2.0501860309480495,3.8240527833975277,3.2361602851668816
96,16.727017515318266,16.18905263609113,2.2837928837484016,2.073326218300641,16.994080185284815,16.994080185284815,2.0734058871568304,2.05058762568146,3.7117617180716698,3.6949794062184127
97,16.716121220446492,16.215735677565224,2.2897817195308616,2.064297174872699,16.99666962488591,16.99666962488591,2.0737218183078427,2.0509000799446846,3.3458875485343027,3.674235197622265
98,16.692786056320074,16.231332682369743,2.2876471782730587,2.050798623458495,16.998519681097193,16.998519681097193,2.0739475391116886,2.0511233166443064,3.1928007389411195,3.5059688545826595
99,16.695690990141326,16.248959169307803,2.2874039597473925,2.047336849264262,16.999629897444983,16.999629897444983,2.0740829938751375,2.0512572807000113,3.506842503502701,3.5445713018532574
100,16.6780540324041,16.25383296160843,2.2778628689229907,2.0364015547998844,17.0,17.0,2.074128149176752,2.0513019390581735,3.261073974386353,3.346466670222376
101,16.662127664256776,16.243654022321664,2.2576083580576296,2.0265175704522034,16.999629897444983,16.999629897444983,2.0740829938751375,2.0512572807000113,3.2855344694040234,3.110985666513726
102,16.651178225466754,16.22610989672517,2.2326679638498965,2.0189888458716183,16.998519681097193,16.998519681097193,2.0739475391116886,2.0511233166443064,3.353256055653477,2.995404992931255
103,16.633314596975385,16.220644063719547,2.2177733419610797,2.009311848798909,16.99666962488591,16.99666962488591,2.0737218183078427,2.0509000799446846,3.2767858954871247,3.1897104047736766
104,16.630715252723416,16.238399401528486,2.2209767944274055,2.005573880973438,16.994080185284815,16.994080185284815,2.0734058871568304,2.05058762568146,3.461060734979538,3.5633238605278867
